85.00
442.00
482.00
442.00
484.00
442.00
484.00
442.00
482.00
443.00
483.00
485.00
479.00
442.00
482.00
442.00
482.00
441.00
481.00
443.00
482.00
442.00
481.00
443.00
481.00
443.00
482.00
533.00
494.00
437.00
481.00
443.00
481.00
443.00
482.00
443.00
480.00
442.00
482.00
443.00
479.00
442.00
481.00
459.00
474.00
442.00
479.00
443.00
478.00
442.00
478.00
446.00
478.00
434.00
479.00
442.00
478.00
442.00
478.00
530.00
498.00
436.00
478.00
443.00
478.00
442.00
477.00
442.00
478.00
443.00
476.00
442.00
478.00
443.00
478.00
555.00
509.00
433.00
476.00
442.00
477.00
442.00
477.00
442.00
477.00
443.00
476.00
443.00
476.00
443.00
474.00
499.00
490.00
437.00
475.00
442.00
475.00
442.00
475.00
443.00
475.00
442.00
475.00
442.00
474.00
443.00
473.00
528.00
508.00
434.00
474.00
443.00
474.00
442.00
473.00
443.00
474.00
443.00
473.00
442.00
473.00
442.00
473.00
546.00
513.00
433.00
474.00
443.00
472.00
443.00
471.00
441.00
470.00
445.00
472.00
442.00
472.00
443.00
465.00
465.00
475.00
441.00
472.00
443.00
471.00
444.00
471.00
443.00
471.00
442.00
472.00
443.00
471.00
442.00
465.00
529.00
513.00
434.00
472.00
442.00
471.00
443.00
470.00
443.00
471.00
443.00
470.00
442.00
469.00
444.00
470.00
534.00
529.00
430.00
471.00
444.00
468.00
443.00
468.00
443.00
469.00
444.00
469.00
443.00
470.00
443.00
469.00
446.00
462.00
442.00
468.00
442.00
469.00
445.00
468.00
442.00
468.00
441.00
467.00
443.00
467.00
442.00
468.00
513.00
518.00
434.00
467.00
443.00
467.00
443.00
467.00
444.00
468.00
442.00
468.00
443.00
467.00
446.00
466.00
426.00
441.00
446.00
466.00
443.00
467.00
443.00
466.00
444.00
466.00
443.00
466.00
443.00
466.00
444.00
464.00
466.00
482.00
439.00
463.00
443.00
463.00
445.00
462.00
443.00
462.00
445.00
460.00
445.00
459.00
445.00
459.00
497.00
521.00
434.00
458.00
445.00
459.00
442.00
458.00
443.00
454.00
442.00
455.00
443.00
457.00
444.00
458.00
462.00
471.00
441.00
455.00
444.00
456.00
444.00
455.00
445.00
453.00
444.00
455.00
444.00
454.00
446.00
456.00
475.00
491.00
438.00
454.00
446.00
454.00
446.00
452.00
445.00
452.00
446.00
454.00
446.00
452.00
446.00
450.00
467.00
489.00
438.00
450.00
445.00
451.00
445.00
450.00
445.00
450.00
445.00
451.00
445.00
450.00
444.00
450.00
453.00
433.00
441.00
450.00
442.00
448.00
443.00
448.00
445.00
438.00
445.00
447.00
445.00
448.00
446.00
446.00
479.00
490.00
438.00
448.00
445.00
448.00
446.00
447.00
446.00
447.00
445.00
447.00
446.00
447.00
446.00
457.00
512.00
599.00
424.00
444.00
447.00
445.00
446.00
446.00
446.00
445.00
447.00
444.00
446.00
445.00
446.00
443.00
482.00
554.00
432.00
442.00
448.00
443.00
446.00
442.00
446.00
443.00
447.00
443.00
443.00
443.00
446.00
442.00
471.00
505.00
437.00
441.00
446.00
441.00
450.00
442.00
448.00
440.00
446.00
439.00
446.00
442.00
447.00
442.00
470.00
515.00
437.00
438.00
448.00
439.00
448.00
439.00
448.00
436.00
446.00
437.00
448.00
437.00
449.00
438.00
471.00
522.00
438.00
436.00
449.00
436.00
449.00
436.00
447.00
435.00
447.00
436.00
450.00
435.00
447.00
433.00
458.00
479.00
443.00
435.00
448.00
434.00
449.00
433.00
449.00
434.00
450.00
431.00
447.00
433.00
449.00
434.00
460.00
521.00
438.00
431.00
449.00
430.00
449.00
430.00
450.00
432.00
447.00
430.00
447.00
432.00
450.00
430.00
450.00
408.00
448.00
430.00
450.00
429.00
449.00
430.00
449.00
430.00
452.00
428.00
448.00
430.00
450.00
428.00
451.00
480.00
442.00
426.00
450.00
427.00
450.00
427.00
450.00
426.00
449.00
427.00
450.00
426.00
450.00
426.00
453.00
496.00
443.00
425.00
450.00
425.00
452.00
425.00
450.00
424.00
450.00
424.00
450.00
424.00
450.00
424.00
453.00
537.00
438.00
421.00
451.00
423.00
451.00
423.00
451.00
421.00
451.00
422.00
450.00
419.00
451.00
422.00
454.00
545.00
441.00
418.00
452.00
420.00
452.00
419.00
450.00
420.00
452.00
418.00
452.00
419.00
452.00
419.00
450.00
407.00
450.00
418.00
451.00
418.00
451.00
418.00
452.00
417.00
452.00
417.00
453.00
405.00
453.00
415.00
451.00
415.00
453.00
416.00
451.00
701.00
441.00
407.00
455.00
412.00
453.00
413.00
454.00
414.00
453.00
412.00
453.00
412.00
453.00
412.00
454.00
520.00
443.00
410.00
455.00
410.00
454.00
410.00
454.00
407.00
455.00
410.00
455.00
410.00
453.00
408.00
454.00
583.00
441.00
397.00
455.00
405.00
454.00
406.00
455.00
404.00
456.00
407.00
454.00
404.00
455.00
401.00
454.00
499.00
447.00
400.00
455.00
400.00
455.00
401.00
455.00
399.00
456.00
398.00
458.00
398.00
456.00
396.00
455.00
592.00
442.00
393.00
457.00
395.00
454.00
396.00
457.00
395.00
458.00
394.00
450.00
394.00
457.00
394.00
456.00
523.00
448.00
391.00
458.00
392.00
457.00
392.00
457.00
391.00
456.00
390.00
458.00
391.00
458.00
392.00
457.00
494.00
451.00
389.00
458.00
390.00
459.00
392.00
459.00
391.00
458.00
391.00
460.00
389.00
458.00
390.00
459.00
481.00
453.00
387.00
459.00
390.00
460.00
390.00
459.00
389.00
458.00
389.00
459.00
387.00
458.00
390.00
459.00
645.00
446.00
384.00
462.00
390.00
459.00
389.00
460.00
389.00
460.00
390.00
460.00
390.00
460.00
390.00
460.00
424.00
455.00
389.00
460.00
391.00
460.00
389.00
462.00
388.00
460.00
389.00
461.00
391.00
461.00
390.00
462.00
517.00
456.00
388.00
462.00
391.00
461.00
392.00
462.00
392.00
462.00
393.00
462.00
394.00
462.00
394.00
463.00
537.00
458.00
391.00
464.00
394.00
463.00
396.00
463.00
395.00
462.00
395.00
463.00
397.00
463.00
398.00
465.00
590.00
458.00
393.00
464.00
398.00
464.00
398.00
464.00
398.00
464.00
401.00
465.00
398.00
465.00
400.00
466.00
445.00
462.00
401.00
465.00
403.00
466.00
402.00
467.00
402.00
465.00
402.00
465.00
404.00
467.00
405.00
466.00
601.00
461.00
400.00
467.00
406.00
467.00
405.00
467.00
406.00
466.00
406.00
467.00
408.00
468.00
409.00
468.00
618.00
462.00
403.00
466.00
409.00
469.00
409.00
469.00
410.00
469.00
411.00
467.00
411.00
471.00
410.00
468.00
435.00
465.00
413.00
469.00
414.00
470.00
413.00
469.00
415.00
472.00
414.00
470.00
415.00
472.00
416.00
470.00
636.00
470.00
411.00
473.00
416.00
471.00
417.00
473.00
418.00
469.00
415.00
470.00
418.00
472.00
418.00
472.00
703.00
471.00
413.00
473.00
419.00
473.00
421.00
473.00
420.00
474.00
421.00
473.00
422.00
474.00
422.00
475.00
595.00
472.00
418.00
474.00
422.00
474.00
423.00
474.00
426.00
474.00
426.00
475.00
426.00
475.00
426.00
475.00
635.00
476.00
421.00
477.00
426.00
475.00
426.00
476.00
426.00
478.00
427.00
475.00
428.00
476.00
429.00
476.00
671.00
479.00
422.00
478.00
429.00
478.00
429.00
478.00
430.00
477.00
427.00
478.00
429.00
478.00
429.00
478.00
605.00
479.00
427.00
480.00
430.00
478.00
431.00
480.00
430.00
478.00
431.00
479.00
431.00
479.00
433.00
480.00
551.00
482.00
429.00
481.00
433.00
482.00
432.00
480.00
432.00
482.00
432.00
482.00
433.00
482.00
433.00
482.00
603.00
476.00
428.00
483.00
433.00
483.00
433.00
484.00
434.00
483.00
434.00
484.00
434.00
486.00
434.00
485.00
647.00
491.00
428.00
487.00
433.00
486.00
434.00
487.00
433.00
486.00
430.00
486.00
432.00
488.00
433.00
486.00
644.00
494.00
427.00
488.00
433.00
488.00
434.00
488.00
432.00
486.00
432.00
474.00
438.00
489.00
433.00
489.00
645.00
498.00
426.00
490.00
432.00
490.00
434.00
491.00
433.00
492.00
432.00
491.00
433.00
493.00
434.00
493.00
641.00
504.00
426.00
495.00
433.00
495.00
433.00
496.00
434.00
497.00
433.00
500.00
438.00
499.00
433.00
501.00
518.00
502.00
430.00
502.00
434.00
503.00
430.00
504.00
432.00
504.00
432.00
503.00
430.00
502.00
433.00
505.00
564.00
508.00
428.00
505.00
432.00
505.00
431.00
504.00
432.00
506.00
432.00
517.00
431.00
506.00
432.00
506.00
638.00
521.00
425.00
506.00
432.00
506.00
433.00
506.00
432.00
505.00
432.00
506.00
434.00
504.00
433.00
506.00
670.00
525.00
425.00
506.00
435.00
505.00
436.00
503.00
437.00
505.00
437.00
506.00
437.00
504.00
438.00
504.00
549.00
513.00
435.00
506.00
440.00
506.00
440.00
506.00
442.00
505.00
441.00
504.00
442.00
504.00
442.00
505.00
648.00
526.00
433.00
506.00
442.00
504.00
442.00
504.00
442.00
527.00
439.00
503.00
442.00
503.00
442.00
504.00
442.00
503.00
442.00
503.00
442.00
505.00
442.00
503.00
339.00
441.00
456.00
502.00
441.00
501.00
442.00
501.00
441.00
500.00
442.00
501.00
442.00
499.00
443.00
499.00
553.00
511.00
438.00
498.00
442.00
497.00
442.00
498.00
442.00
497.00
443.00
496.00
444.00
497.00
442.00
497.00
485.00
492.00
442.00
496.00
442.00
492.00
441.00
494.00
443.00
494.00
443.00
494.00
442.00
493.00
443.00
494.00
676.00
533.00
430.00
494.00
442.00
493.00
442.00
493.00
442.00
491.00
442.00
492.00
442.00
491.00
443.00
490.00
590.00
515.00
433.00
489.00
442.00
489.00
442.00
489.00
442.00
488.00
442.00
489.00
442.00
489.00
442.00
487.00
641.00
525.00
430.00
488.00
442.00
487.00
442.00
487.00
444.00
487.00
442.00
486.00
442.00
486.00
443.00
485.00
564.00
506.00
434.00
485.00
443.00
484.00
441.00
483.00
443.00
483.00
441.00
481.00
443.00
486.00
441.00
484.00
528.00
496.00
436.00
484.00
442.00
483.00
443.00
483.00
442.00
482.00
442.00
482.00
442.00
482.00
442.00
482.00
588.00
517.00
433.00
482.00
443.00
481.00
442.00
482.00
442.00
481.00
442.00
482.00
442.00
481.00
442.00
482.00
550.00
507.00
434.00
482.00
442.00
481.00
442.00
497.00
442.00
481.00
442.00
482.00
442.00
479.00
442.00
482.00
595.00
526.00
430.00
480.00
442.00
479.00
442.00
478.00
441.00
479.00
442.00
479.00
443.00
479.00
442.00
479.00
566.00
517.00
432.00
501.00
442.00
477.00
443.00
477.00
443.00
479.00
443.00
478.00
442.00
478.00
443.00
478.00
440.00
483.00
468.00
499.00
438.00
477.00
442.00
477.00
442.00
476.00
442.00
476.00
443.00
476.00
443.00
477.00
442.00
474.00
585.00
531.00
428.00
476.00
444.00
476.00
442.00
475.00
442.00
476.00
442.00
476.00
443.00
474.00
442.00
476.00
561.00
524.00
431.00
476.00
440.00
474.00
441.00
476.00
443.00
474.00
443.00
474.00
442.00
474.00
442.00
474.00
578.00
534.00
427.00
474.00
443.00
473.00
443.00
474.00
442.00
474.00
442.00
474.00
442.00
472.00
442.00
474.00
529.00
513.00
434.00
474.00
443.00
473.00
443.00
473.00
443.00
473.00
444.00
474.00
443.00
472.00
443.00
473.00
528.00
516.00
432.00
474.00
444.00
471.00
444.00
474.00
444.00
474.00
445.00
473.00
442.00
472.00
442.00
472.00
575.00
551.00
427.00
473.00
443.00
471.00
442.00
470.00
445.00
472.00
442.00
472.00
443.00
471.00
443.00
472.00
513.00
513.00
434.00
471.00
443.00
471.00
443.00
470.00
442.00
470.00
444.00
471.00
443.00
469.00
444.00
470.00
516.00
519.00
432.00
470.00
443.00
470.00
443.00
468.00
442.00
470.00
443.00
470.00
443.00
470.00
444.00
469.00
481.00
499.00
436.00
468.00
443.00
467.00
443.00
468.00
443.00
469.00
442.00
468.00
442.00
467.00
443.00
468.00
521.00
537.00
431.00
469.00
444.00
466.00
443.00
467.00
445.00
468.00
442.00
469.00
443.00
468.00
443.00
466.00
508.00
523.00
434.00
465.00
443.00
466.00
443.00
466.00
445.00
465.00
443.00
465.00
445.00
462.00
442.00
463.00
528.00
545.00
428.00
461.00
445.00
460.00
444.00
459.00
444.00
460.00
445.00
459.00
445.00
461.00
444.00
458.00
509.00
529.00
430.00
458.00
445.00
458.00
443.00
458.00
444.00
458.00
444.00
455.00
444.00
456.00
460.00
456.00
494.00
514.00
434.00
454.00
444.00
456.00
443.00
454.00
444.00
455.00
445.00
453.00
444.00
453.00
444.00
454.00
506.00
537.00
431.00
452.00
445.00
453.00
445.00
451.00
445.00
452.00
446.00
452.00
445.00
450.00
444.00
453.00
476.00
492.00
437.00
450.00
446.00
451.00
445.00
451.00
446.00
452.00
443.00
451.00
445.00
451.00
445.00
451.00
463.00
475.00
439.00
450.00
446.00
450.00
444.00
450.00
445.00
450.00
445.00
449.00
444.00
450.00
446.00
449.00
498.00
541.00
431.00
438.00
447.00
448.00
445.00
446.00
436.00
447.00
446.00
447.00
445.00
448.00
445.00
447.00
484.00
523.00
435.00
446.00
446.00
446.00
445.00
446.00
447.00
446.00
446.00
446.00
446.00
446.00
445.00
446.00
489.00
537.00
433.00
445.00
446.00
445.00
446.00
445.00
446.00
444.00
445.00
444.00
446.00
444.00
446.00
443.00
498.00
572.00
428.00
442.00
446.00
442.00
446.00
442.00
446.00
442.00
446.00
442.00
446.00
442.00
447.00
441.00
489.00
573.00
429.00
440.00
447.00
441.00
447.00
440.00
446.00
438.00
446.00
440.00
447.00
438.00
446.00
439.00
477.00
536.00
436.00
438.00
447.00
438.00
458.00
439.00
447.00
437.00
444.00
437.00
447.00
438.00
447.00
438.00
478.00
545.00
434.00
435.00
448.00
436.00
448.00
435.00
449.00
434.00
447.00
436.00
449.00
436.00
449.00
434.00
466.00
507.00
439.00
434.00
450.00
434.00
448.00
435.00
449.00
434.00
449.00
434.00
447.00
433.00
448.00
432.00
459.00
466.00
446.00
434.00
450.00
432.00
448.00
432.00
448.00
431.00
448.00
430.00
449.00
432.00
449.00
431.00
474.00
609.00
430.00
428.00
450.00
430.00
449.00
429.00
450.00
429.00
450.00
429.00
450.00
429.00
450.00
428.00
463.00
550.00
437.00
427.00
450.00
427.00
450.00
427.00
449.00
427.00
450.00
428.00
450.00
428.00
450.00
427.00
458.00
519.00
441.00
425.00
450.00
427.00
450.00
427.00
450.00
427.00
450.00
426.00
450.00
426.00
450.00
424.00
462.00
609.00
431.00
424.00
451.00
425.00
450.00
424.00
451.00
422.00
449.00
422.00
451.00
424.00
451.00
424.00
455.00
523.00
440.00
422.00
451.00
422.00
450.00
421.00
451.00
422.00
450.00
420.00
451.00
422.00
451.00
419.00
455.00
569.00
436.00
417.00
451.00
418.00
453.00
419.00
451.00
419.00
452.00
418.00
451.00
418.00
451.00
418.00
454.00
543.00
441.00
416.00
453.00
418.00
450.00
417.00
452.00
463.00
464.00
403.00
452.00
415.00
451.00
415.00
451.00
415.00
451.00
416.00
454.00
421.00
454.00
414.00
454.00
413.00
451.00
414.00
452.00
413.00
454.00
413.00
453.00
413.00
454.00
414.00
453.00
378.00
451.00
414.00
453.00
411.00
454.00
411.00
453.00
412.00
452.00
411.00
455.00
411.00
454.00
409.00
451.00
410.00
451.00
404.00
469.00
410.00
454.00
409.00
454.00
410.00
454.00
409.00
453.00
409.00
454.00
408.00
454.00
545.00
444.00
406.00
455.00
406.00
454.00
406.00
454.00
406.00
454.00
405.00
455.00
405.00
455.00
405.00
453.00
577.00
442.00
401.00
455.00
403.00
452.00
402.00
450.00
403.00
454.00
403.00
450.00
406.00
454.00
406.00
452.00
457.00
443.00
410.00
453.00
410.00
454.00
410.00
453.00
410.00
454.00
410.00
455.00
408.00
453.00
408.00
455.00
515.00
444.00
405.00
456.00
408.00
454.00
407.00
454.00
405.00
454.00
407.00
455.00
406.00
455.00
405.00
456.00
541.00
445.00
403.00
455.00
397.00
455.00
403.00
456.00
403.00
455.00
403.00
456.00
404.00
454.00
402.00
456.00
439.00
450.00
402.00
456.00
401.00
454.00
401.00
453.00
401.00
456.00
402.00
456.00
400.00
455.00
401.00
455.00
422.00
453.00
401.00
457.00
400.00
457.00
400.00
457.00
400.00
456.00
400.00
458.00
400.00
454.00
390.00
434.00
398.00
458.00
401.00
455.00
402.00
458.00
402.00
458.00
403.00
457.00
402.00
457.00
402.00
457.00
403.00
557.00
398.00
453.00
404.00
458.00
403.00
458.00
405.00
456.00
404.00
457.00
402.00
458.00
403.00
458.00
244.00
415.00
415.00
457.00
403.00
458.00
403.00
458.00
404.00
457.00
402.00
458.00
403.00
458.00
403.00
458.00
450.00
451.00
403.00
458.00
403.00
459.00
403.00
458.00
403.00
458.00
404.00
458.00
403.00
458.00
402.00
458.00
443.00
450.00
405.00
459.00
405.00
459.00
404.00
459.00
404.00
459.00
405.00
460.00
405.00
459.00
407.00
460.00
405.00
452.00
407.00
459.00
410.00
459.00
406.00
459.00
406.00
460.00
407.00
461.00
406.00
460.00
407.00
459.00
431.00
453.00
408.00
462.00
407.00
461.00
407.00
461.00
408.00
459.00
406.00
461.00
410.00
461.00
409.00
460.00
412.00
454.00
411.00
460.00
410.00
461.00
410.00
462.00
410.00
461.00
411.00
462.00
411.00
461.00
399.00
462.00
413.00
453.00
413.00
462.00
412.00
462.00
411.00
461.00
413.00
462.00
412.00
461.00
413.00
462.00
414.00
462.00
442.00
455.00
416.00
461.00
414.00
462.00
415.00
462.00
415.00
463.00
415.00
462.00
415.00
463.00
416.00
463.00
466.00
456.00
418.00
463.00
416.00
462.00
418.00
464.00
418.00
464.00
416.00
462.00
417.00
464.00
418.00
464.00
399.00
456.00
421.00
463.00
419.00
463.00
420.00
463.00
420.00
463.00
421.00
465.00
420.00
463.00
420.00
463.00
433.00
455.00
422.00
463.00
422.00
464.00
422.00
466.00
421.00
465.00
423.00
465.00
422.00
466.00
423.00
464.00
482.00
459.00
423.00
466.00
423.00
466.00
426.00
464.00
423.00
465.00
424.00
453.00
425.00
466.00
424.00
466.00
492.00
459.00
424.00
466.00
426.00
466.00
426.00
466.00
426.00
466.00
424.00
466.00
426.00
467.00
426.00
466.00
539.00
462.00
426.00
466.00
427.00
468.00
427.00
468.00
427.00
468.00
428.00
467.00
444.00
467.00
430.00
467.00
434.00
459.00
430.00
468.00
430.00
468.00
430.00
468.00
430.00
468.00
430.00
469.00
430.00
467.00
432.00
469.00
373.00
458.00
434.00
469.00
431.00
471.00
433.00
469.00
431.00
470.00
431.00
469.00
433.00
471.00
433.00
471.00
493.00
464.00
433.00
471.00
433.00
470.00
432.00
469.00
433.00
470.00
433.00
468.00
433.00
470.00
434.00
472.00
543.00
465.00
432.00
471.00
435.00
471.00
434.00
471.00
434.00
471.00
434.00
471.00
434.00
472.00
434.00
472.00
533.00
467.00
433.00
473.00
435.00
473.00
434.00
473.00
437.00
462.00
435.00
473.00
435.00
473.00
435.00
473.00
436.00
475.00
436.00
475.00
435.00
474.00
436.00
473.00
468.00
494.00
430.00
474.00
437.00
474.00
436.00
475.00
436.00
474.00
437.00
475.00
441.00
474.00
436.00
474.00
538.00
471.00
435.00
474.00
436.00
474.00
438.00
475.00
436.00
475.00
438.00
476.00
436.00
477.00
436.00
475.00
564.00
474.00
433.00
467.00
435.00
477.00
437.00
476.00
437.00
478.00
435.00
478.00
438.00
477.00
437.00
478.00
521.00
473.00
434.00
477.00
436.00
477.00
436.00
476.00
437.00
475.00
437.00
474.00
437.00
476.00
437.00
475.00
436.00
479.00
436.00
479.00
436.00
481.00
437.00
480.00
435.00
481.00
436.00
479.00
436.00
481.00
435.00
481.00
319.00
448.00
446.00
481.00
433.00
481.00
435.00
482.00
437.00
482.00
436.00
483.00
437.00
483.00
436.00
483.00
594.00
487.00
433.00
485.00
435.00
485.00
437.00
486.00
437.00
487.00
437.00
488.00
438.00
488.00
437.00
487.00
473.00
479.00
438.00
490.00
434.00
489.00
437.00
490.00
437.00
491.00
436.00
491.00
436.00
490.00
434.00
490.00
533.00
489.00
432.00
491.00
436.00
491.00
435.00
490.00
436.00
491.00
435.00
492.00
436.00
493.00
436.00
493.00
601.00
498.00
430.00
494.00
432.00
491.00
435.00
494.00
436.00
494.00
434.00
494.00
437.00
494.00
434.00
492.00
490.00
488.00
435.00
494.00
436.00
492.00
437.00
493.00
438.00
494.00
437.00
493.00
438.00
492.00
437.00
493.00
636.00
503.00
431.00
494.00
439.00
493.00
438.00
492.00
440.00
491.00
439.00
493.00
440.00
492.00
441.00
490.00
545.00
493.00
439.00
492.00
442.00
490.00
441.00
491.00
442.00
490.00
443.00
493.00
442.00
492.00
443.00
492.00
382.00
465.00
449.00
492.00
444.00
493.00
442.00
490.00
443.00
493.00
444.00
491.00
442.00
484.00
442.00
492.00
609.00
500.00
438.00
493.00
442.00
492.00
443.00
491.00
442.00
491.00
444.00
491.00
443.00
490.00
443.00
490.00
577.00
497.00
439.00
490.00
444.00
489.00
444.00
490.00
443.00
489.00
444.00
488.00
443.00
490.00
443.00
489.00
442.00
472.00
446.00
487.00
443.00
486.00
444.00
489.00
443.00
487.00
444.00
486.00
444.00
486.00
444.00
486.00
600.00
494.00
438.00
482.00
444.00
486.00
442.00
483.00
444.00
484.00
445.00
486.00
443.00
484.00
444.00
484.00
442.00
482.00
444.00
485.00
442.00
484.00
444.00
483.00
443.00
483.00
445.00
483.00
444.00
482.00
442.00
482.00
443.00
481.00
443.00
482.00
445.00
482.00
445.00
479.00
443.00
478.00
445.00
477.00
443.00
478.00
444.00
480.00
445.00
479.00
443.00
480.00
445.00
480.00
444.00
480.00
443.00
479.00
443.00
479.00
443.00
479.00
443.00
478.00
393.00
412.00
442.00
478.00
443.00
478.00
444.00
476.00
441.00
477.00
443.00
474.00
443.00
478.00
443.00
477.00
497.00
474.00
442.00
476.00
443.00
475.00
443.00
475.00
444.00
478.00
444.00
476.00
444.00
476.00
442.00
475.00
547.00
487.00
438.00
476.00
442.00
474.00
443.00
474.00
443.00
476.00
444.00
474.00
443.00
475.00
444.00
474.00
557.00
492.00
438.00
475.00
442.00
475.00
442.00
475.00
442.00
474.00
444.00
474.00
444.00
474.00
442.00
475.00
483.00
470.00
442.00
475.00
443.00
474.00
444.00
471.00
441.00
472.00
443.00
474.00
443.00
474.00
443.00
474.00
485.00
472.00
441.00
473.00
444.00
473.00
444.00
474.00
448.00
473.00
443.00
473.00
444.00
474.00
446.00
474.00
541.00
494.00
436.00
474.00
443.00
474.00
443.00
472.00
445.00
474.00
443.00
472.00
443.00
473.00
444.00
473.00
478.00
466.00
442.00
473.00
442.00
471.00
443.00
471.00
443.00
471.00
442.00
473.00
444.00
471.00
444.00
470.00
494.00
474.00
442.00
472.00
442.00
470.00
439.00
471.00
443.00
470.00
442.00
472.00
443.00
469.00
444.00
470.00
577.00
513.00
432.00
471.00
442.00
469.00
445.00
470.00
444.00
471.00
443.00
470.00
443.00
469.00
445.00
469.00
506.00
482.00
439.00
469.00
444.00
469.00
444.00
475.00
444.00
468.00
444.00
469.00
444.00
468.00
444.00
468.00
552.00
522.00
432.00
467.00
444.00
469.00
444.00
469.00
445.00
467.00
444.00
469.00
444.00
467.00
442.00
469.00
449.00
452.00
445.00
467.00
443.00
468.00
442.00
467.00
442.00
466.00
442.00
467.00
444.00
467.00
443.00
467.00
494.00
481.00
439.00
468.00
443.00
